G. Fekken. Numerical simulation of free surface flow with moving rigid bodies. PhD thesis, University of Groningen, 2004.
Time(-)	Velocity(-)
  0.0000000e+000 -1.5000000e-002
  3.1478373e-002 -2.7843127e-002
  6.2956746e-002 -4.0686254e-002
  9.4435118e-002 -5.3338448e-002
  1.2591349e-001 -6.6183875e-002
  1.5739186e-001 -7.8836069e-002
  1.8887024e-001 -9.1295030e-002
  2.2034861e-001 -1.0375629e-001
  2.5182698e-001 -1.1621755e-001
  2.8330536e-001 -1.2848558e-001
  3.1478373e-001 -1.4056267e-001
  3.4626210e-001 -1.5263977e-001
  3.7774047e-001 -1.6452593e-001
  4.0921885e-001 -1.7621886e-001
  4.4069362e-001 -1.8791178e-001
  4.7217199e-001 -1.9941378e-001
  5.0365037e-001 -2.1072484e-001
  5.3512874e-001 -2.2203590e-001
  5.6660711e-001 -2.3315373e-001
  5.9808549e-001 -2.4408062e-001
  6.2956386e-001 -2.5462335e-001
  6.6104223e-001 -2.6516838e-001
  6.9252060e-001 -2.7532694e-001
  7.2399898e-001 -2.8548780e-001
  7.5547735e-001 -2.9526450e-001
  7.8695572e-001 -3.0485026e-001
  8.1843409e-001 -3.1424279e-001
  8.4991247e-001 -3.2344438e-001
  8.8139084e-001 -3.3245505e-001
  9.1286921e-001 -3.4127248e-001
  9.4434759e-001 -3.4989897e-001
  9.7582596e-001 -3.5833453e-001
  1.0058114e+000 -3.6676780e-001
  1.0372897e+000 -3.7481919e-001
  1.0687681e+000 -3.8267966e-001
  1.1002465e+000 -3.9034689e-001
  1.1317248e+000 -3.9744132e-001
  1.1632032e+000 -4.0453345e-001
  1.1946816e+000 -4.1124371e-001
  1.2261600e+000 -4.1795167e-001
  1.2576383e+000 -4.2447100e-001
  1.2891167e+000 -4.3079710e-001
  1.3205951e+000 -4.3692996e-001
  1.3520735e+000 -4.4287419e-001
  1.3835518e+000 -4.4862519e-001
  1.4150302e+000 -4.5399202e-001
  1.4465086e+000 -4.5916792e-001
  1.4779869e+000 -4.6415288e-001
  1.5094653e+000 -4.6894461e-001
  1.5409437e+000 -4.7335448e-001
  1.5724221e+000 -4.7776204e-001
  1.6039004e+000 -4.8217191e-001
  1.6353788e+000 -4.8619761e-001
  1.6668572e+000 -4.9003237e-001
  1.6983356e+000 -4.9348297e-001
  1.7298139e+000 -4.9674033e-001
  1.7612923e+000 -4.9980907e-001
  1.7927707e+000 -5.0268457e-001
  1.8242490e+000 -5.0556006e-001
  1.8557274e+000 -5.0843556e-001
  1.8872058e+000 -5.1073596e-001
  1.9186842e+000 -5.1322729e-001
  1.9501625e+000 -5.1495259e-001
  1.9816409e+000 -5.1667789e-001
  2.0131193e+000 -5.1840319e-001
  2.0431047e+000 -5.1993756e-001
  2.0745831e+000 -5.2127869e-001
  2.1060614e+000 -5.2281306e-001
  2.1375398e+000 -5.2377002e-001
  2.1690182e+000 -5.2472929e-001
  2.2004965e+000 -5.2511345e-001
  2.2319749e+000 -5.2568855e-001
  2.2634533e+000 -5.2607042e-001
  2.2949317e+000 -5.2626365e-001
  2.4523235e+000 -5.2626365e-001
  2.4523235e+000 -5.2626365e-001
  2.5467586e+000 -5.2626365e-001
  2.5782370e+000 -5.2549532e-001
  2.6097154e+000 -5.2549532e-001
  2.6411938e+000 -5.2530439e-001
  2.7041505e+000 -5.2530439e-001
  2.7356289e+000 -5.2357909e-001
  2.7671073e+000 -5.2338816e-001
  2.7985856e+000 -5.2338816e-001
  2.8300640e+000 -5.2127869e-001
  2.8615424e+000 -5.1974432e-001
  2.8930208e+000 -5.1763716e-001
  2.9244991e+000 -5.1552769e-001
  2.9559775e+000 -5.1341823e-001
  2.9874559e+000 -5.1131106e-001
  3.0189342e+000 -5.0881743e-001
  3.0489017e+000 -5.0613516e-001
  3.0803800e+000 -5.0613516e-001
  3.1118584e+000 -5.0402570e-001
  3.1433368e+000 -5.0115020e-001
  3.1748151e+000 -4.9846563e-001
  3.2062935e+000 -4.9578337e-001
  3.2377719e+000 -4.9271464e-001
  3.2692503e+000 -4.8983914e-001
  3.3007286e+000 -4.8696364e-001
  3.3322070e+000 -4.8485647e-001
  3.3636854e+000 -4.8236284e-001
  3.3951638e+000 -4.7910548e-001
  3.4266421e+000 -4.7680508e-001
  3.4581205e+000 -4.7431145e-001
  3.4895989e+000 -4.7124501e-001
  3.5210772e+000 -4.6836952e-001
  3.5525556e+000 -4.6549402e-001
  3.5840340e+000 -4.6280945e-001
  3.6155124e+000 -4.6031812e-001
  3.6469907e+000 -4.5744262e-001
  3.6784691e+000 -4.5437619e-001
  3.7099475e+000 -4.5150069e-001
  3.7414259e+000 -4.4843196e-001
  3.7729042e+000 -4.4498136e-001
  3.8043826e+000 -4.4287419e-001
  3.8358610e+000 -4.3980546e-001
  3.8673393e+000 -4.3769830e-001
  3.8988177e+000 -4.3482280e-001
  3.9302961e+000 -4.3175407e-001
  3.9617745e+000 -4.2868763e-001
  3.9932528e+000 -4.2562120e-001
  4.0247312e+000 -4.2274570e-001
  4.0562096e+000 -4.2121134e-001
  4.0861950e+000 -4.1891094e-001
  4.1176734e+000 -4.1641961e-001
  4.1491517e+000 -4.1469431e-001
  4.1806301e+000 -4.1258484e-001
  4.1971248e+000 -4.1181881e-001
  4.2121085e+000 -4.1105048e-001
  4.2286031e+000 -4.1488524e-001
  4.2435868e+000 -4.1469431e-001
  4.2750652e+000 -4.1469431e-001
  4.2915599e+000 -4.1507617e-001
  4.3065436e+000 -4.1450107e-001
  4.3230383e+000 -4.1392597e-001
  4.3380220e+000 -4.1354411e-001
  4.3545166e+000 -4.1296901e-001
  4.3695003e+000 -4.1277578e-001
  4.3859950e+000 -4.1277578e-001
  4.4009787e+000 -4.1258484e-001
  4.4324571e+000 -4.1258484e-001
  4.4489517e+000 -4.1239391e-001
  4.4639355e+000 -4.1239391e-001
  4.4804301e+000 -4.1277578e-001
  4.4954138e+000 -4.1277578e-001
  4.5119085e+000 -4.1258484e-001
  4.5268922e+000 -4.1258484e-001
  4.5433869e+000 -4.1239391e-001
  4.5583706e+000 -4.1239391e-001
  4.5748652e+000 -4.1220068e-001
  4.6048326e+000 -4.1220068e-001
  4.6213273e+000 -4.1200974e-001
  4.6842841e+000 -4.1200974e-001
  4.6992678e+000 -4.1220068e-001
  4.7472408e+000 -4.1220068e-001
  4.7622245e+000 -4.1258484e-001
  4.8881380e+000 -4.1258484e-001
  4.8881380e+000 -4.1258484e-001
  4.9196164e+000 -4.1258484e-001
  4.9510948e+000 -4.1239391e-001
  4.9825731e+000 -4.1258484e-001
  5.0140515e+000 -4.1277578e-001
  5.0455299e+000 -4.1315994e-001
  5.0770082e+000 -4.1354411e-001
  5.1084866e+000 -4.1392597e-001
  5.1399650e+000 -4.1411921e-001
  5.1714434e+000 -4.1431014e-001
  5.2029217e+000 -4.1469431e-001
  5.2344001e+000 -4.1507617e-001
  5.2658785e+000 -4.1546034e-001
  5.2973569e+000 -4.1565127e-001
  5.3288352e+000 -4.1622637e-001
  5.3603136e+000 -4.1661054e-001
  5.3917920e+000 -4.1718564e-001
  5.4232703e+000 -4.1756981e-001
  5.4547487e+000 -4.1795167e-001
  5.4862271e+000 -4.1833584e-001
  5.5177055e+000 -4.1891094e-001
  5.5491838e+000 -4.1929511e-001
  5.5806622e+000 -4.1967697e-001
  5.6106476e+000 -4.2044531e-001
  5.6421260e+000 -4.2102040e-001
  5.6736044e+000 -4.2178644e-001
  5.7050827e+000 -4.2255247e-001
  5.7365611e+000 -4.2293664e-001
  5.7680395e+000 -4.2351174e-001
  5.7995178e+000 -4.2427777e-001
  5.8309962e+000 -4.2504610e-001
  5.8624746e+000 -4.2562120e-001
  5.8939530e+000 -4.2638724e-001
  5.9254313e+000 -4.2715327e-001
  5.9569097e+000 -4.2811253e-001
  5.9883881e+000 -4.2907180e-001
  6.0198665e+000 -4.2964690e-001
  6.0513448e+000 -4.3041293e-001
  6.0828232e+000 -4.3117897e-001
  6.1143016e+000 -4.3194730e-001
  6.1457799e+000 -4.3290427e-001
  6.1772583e+000 -4.3367260e-001
  6.2087367e+000 -4.3462956e-001
  6.2402151e+000 -4.3558883e-001
  6.2716934e+000 -4.3673903e-001
  6.3031718e+000 -4.3750506e-001
  6.3346502e+000 -4.3846433e-001
  6.3661286e+000 -4.3942360e-001
  6.3976069e+000 -4.4038056e-001
  6.4290853e+000 -4.4114890e-001
  6.4605637e+000 -4.4210586e-001
  6.4920420e+000 -4.4325606e-001
  6.5235204e+000 -4.4440626e-001
  6.5549988e+000 -4.4555646e-001
  6.5864772e+000 -4.4670666e-001
  6.6179555e+000 -4.4766593e-001
  6.6479409e+000 -4.4881612e-001
  6.6794193e+000 -4.4977539e-001
  6.7108977e+000 -4.5092559e-001
  6.7423761e+000 -4.5188256e-001
  6.7738544e+000 -4.5322599e-001
  6.8053328e+000 -4.5456712e-001
  6.8368112e+000 -4.5590825e-001
  6.8682895e+000 -4.5686752e-001
  6.8997679e+000 -4.5782679e-001
  6.9312463e+000 -4.5897699e-001
  6.9627247e+000 -4.6012719e-001
  6.9942030e+000 -4.6127739e-001
  7.0256814e+000 -4.6261852e-001
  7.0571598e+000 -4.6395965e-001
  7.0886382e+000 -4.6530308e-001
  7.1201165e+000 -4.6664422e-001
  7.1515949e+000 -4.6760348e-001
  7.1830733e+000 -4.6875368e-001
  7.2145516e+000 -4.6990388e-001
  7.2460300e+000 -4.7105408e-001
  7.2775084e+000 -4.7220428e-001
  7.3089868e+000 -4.7354541e-001
  7.3404651e+000 -4.7488655e-001
  7.3719435e+000 -4.7622998e-001
  7.4034219e+000 -4.7738018e-001
  7.4349003e+000 -4.7853038e-001
  7.4663786e+000 -4.7968058e-001
  7.4978570e+000 -4.8083078e-001
  7.5293354e+000 -4.8198098e-001
  7.5608137e+000 -4.8332211e-001
  7.5922921e+000 -4.8447231e-001
  7.6237705e+000 -4.8600667e-001
  7.6552489e+000 -4.8715687e-001
  7.6852163e+000 -4.8830707e-001
  7.7166946e+000 -4.8926404e-001
  7.7481730e+000 -4.9060747e-001
  7.7796514e+000 -4.9156444e-001
  7.8111298e+000 -4.9290787e-001
  7.8426081e+000 -4.9405807e-001
  7.8740865e+000 -4.9559014e-001
  7.9055649e+000 -4.9674033e-001
  7.9370433e+000 -4.9769960e-001
  7.9685216e+000 -4.9884980e-001
  8.0000000e+000 -5.0000000e-001
